Voltage,Current
-1.9999691247940,-2.958773438877e-05
-1.9899691343307,-2.923982901848e-05
-1.9799576997757,-2.897817103076e-05
-1.9699647426605,-2.862863766495e-05
-1.9599581956863,-2.835834311554e-05
-1.9499781131744,-2.807166310959e-05
-1.9399808645248,-2.787017365335e-05
-1.9299689531326,-2.766785109998e-05
-1.9199690818787,-2.745016354311e-05
-1.9099694490433,-2.722456156334e-05
-1.8999660015106,-2.700732329686e-05
-1.8899630308151,-2.675377982087e-05
-1.8799610137939,-2.65452235908e-05
-1.8699557781219,-2.632980613271e-05
-1.8599841594696,-2.620806844789e-05
-1.8499859571457,-2.599993786134e-05
-1.8399844169617,-2.575171492936e-05
-1.8299798965454,-2.554974525992e-05
-1.8199682235718,-2.534780287533e-05
-1.8099670410156,-2.511196544219e-05
-1.7999591827393,-2.490562110324e-05
-1.7899620532990,-2.4703618692e-05
-1.7799546718597,-2.453232809785e-05
-1.7699877023697,-2.435911119392e-05
-1.7599859237671,-2.415172821202e-05
-1.7499779462814,-2.400028279226e-05
-1.7399809360504,-2.383371611359e-05
-1.7299715280533,-2.361545739404e-05
-1.7199778556824,-2.341632898606e-05
-1.7099695205688,-2.32439069805e-05
-1.6999630928040,-2.301686436113e-05
-1.6899589300156,-2.286139897478e-05
-1.6799867153168,-2.259711072838e-05
-1.6699881553650,-2.243062044727e-05
-1.6599812507629,-2.222228067694e-05
-1.6499770879745,-2.206753924838e-05
-1.6399695873260,-2.189526821894e-05
-1.6299695968628,-2.172562744818e-05
-1.6199690103531,-2.151642911485e-05
-1.6099678277969,-2.130300526915e-05
-1.5999701023102,-2.113910704793e-05
-1.5899904966354,-2.103627775796e-05
-1.5799882411957,-2.083260187646e-05
-1.5699906349182,-2.066503111564e-05
-1.5599842071533,-2.04890857276e-05
-1.5499824285507,-2.031711119344e-05
-1.5399746894836,-2.017242695729e-05
-1.5299658775330,-1.995324055315e-05
-1.5199627876282,-1.976146086236e-05
-1.5099617242813,-1.965503906831e-05
-1.4999971389771,-1.948680619535e-05
-1.4899901151657,-1.931667429744e-05
-1.4799879789352,-1.914120184665e-05
-1.4699857234955,-1.897963011288e-05
-1.4599769115448,-1.881211028376e-05
-1.4499849081039,-1.863327270257e-05
-1.4399747848511,-1.844405414886e-05
-1.4299758672714,-1.831833651522e-05
-1.4199684858322,-1.814247843868e-05
-1.4099898338318,-1.801562939363e-05
-1.3999958038330,-1.784873347788e-05
-1.3899865150452,-1.76455523615e-05
-1.3799873590469,-1.751144918671e-05
-1.3699822425842,-1.734706529533e-05
-1.3599761724472,-1.717597842799e-05
-1.3499765396118,-1.699610947981e-05
-1.3399746417999,-1.685547613306e-05
-1.3299715518951,-1.669152879913e-05
-1.3200002908707,-1.651202182984e-05
-1.3099957704544,-1.637940295041e-05
-1.2999963760376,-1.62257674674e-05
-1.2899891138077,-1.608814091014e-05
-1.2799910306931,-1.591614091012e-05
-1.2699831724167,-1.57894592121e-05
-1.2599790096283,-1.559982774779e-05
-1.2499725818634,-1.547273677716e-05
-1.2399663925171,-1.530566805741e-05
-1.2299983501434,-1.517317741673e-05
-1.2200000286102,-1.501135648141e-05
-1.2099951505661,-1.484292624809e-05
-1.1999970674515,-1.471367249906e-05
-1.1899852752686,-1.454965604353e-05
-1.1799830198288,-1.439968309569e-05
-1.1699829101563,-1.426263406756e-05
-1.1599794626236,-1.413340942236e-05
-1.1499760150909,-1.397439609718e-05
-1.1399987936020,-1.382831214869e-05
-1.1299965381622,-1.367416825815e-05
-1.1199892759323,-1.350439742964e-05
-1.1099908351898,-1.33854964588e-05
-1.0999882221222,-1.322505340795e-05
-1.0899890661240,-1.310420338996e-05
-1.0799784660339,-1.297563176195e-05
-1.0699740648270,-1.279521075048e-05
-1.0599713325500,-1.268205141969e-05
-1.0500044822693,-1.252722995559e-05
-1.0400062799454,-1.237146898347e-05
-1.0299986600876,-1.226473523275e-05
-1.0199918746948,-1.213345422002e-05
-1.0099880695343,-1.199700636789e-05
-0.9999862909317,-1.185827477457e-05
-0.9899815917015,-1.171789335785e-05
-0.9799774885178,-1.157025326393e-05
-0.9699718356133,-1.141706616181e-05
-0.9600011706352,-1.127725681727e-05
-0.9499974250793,-1.113873167924e-05
-0.9399997591972,-1.099982819142e-05
-0.9299957156181,-1.085699113901e-05
-0.9199945330620,-1.073056955647e-05
-0.9099904894829,-1.057846657204e-05
-0.8999852538109,-1.044017790264e-05
-0.8899837136269,-1.033137959894e-05
-0.8799813985825,-1.021768093779e-05
-0.8700101375580,-1.008382787404e-05
-0.8599921464920,-9.960725947167e-06
-0.8499855995178,-9.859884812613e-06
-0.8399844765663,-9.726853932079e-06
-0.8299807310104,-9.594583389116e-06
-0.8199821114540,-9.448339369555e-06
-0.8099738955498,-9.32028524403e-06
-0.7999695539474,-9.200321983371e-06
-0.7899662256241,-9.081935786526e-06
-0.7799941897392,-8.950044502853e-06
-0.7699980139732,-8.819548384054e-06
-0.7599929571152,-8.708732821106e-06
-0.7499928474426,-8.558959962102e-06
-0.7399845719337,-8.440555575362e-06
-0.7299749255180,-8.329191587109e-06
-0.7199720144272,-8.184753824025e-06
-0.7099717855453,-8.080758561846e-06
-0.6999703049660,-7.944891876832e-06
-0.6899993419647,-7.827202352928e-06
-0.6799936890602,-7.697932232986e-06
-0.6699893474579,-7.572955837531e-06
-0.6599885225296,-7.448984433722e-06
-0.6499911546707,-7.328491847147e-06
-0.6399857401848,-7.21722290109e-06
-0.6299837231636,-7.092181476764e-06
-0.6199800968170,-6.962743100303e-06
-0.6099731922150,-6.83889584252e-06
-0.6000094413757,-6.72852866046e-06
-0.5899985432625,-6.59946590531e-06
-0.5799973607063,-6.486179700005e-06
-0.5699886083603,-6.375558314176e-06
-0.5599830150604,-6.261900125537e-06
-0.5499826669693,-6.14885448158e-06
-0.5399801731110,-6.031201337464e-06
-0.5299789905548,-5.914112080063e-06
-0.5199773907661,-5.817395503982e-06
-0.5100059509277,-5.697789674741e-06
-0.5000061392784,-5.577489446296e-06
-0.4899992942810,-5.465190042742e-06
-0.4800024330616,-5.364317530621e-06
-0.4699957966805,-5.234828677203e-06
-0.4599928855896,-5.125299139763e-06
-0.4499828815460,-5.013001555199e-06
-0.4399761557579,-4.903867193207e-06
-0.4299796521664,-4.787235411641e-06
-0.4200075864792,-4.66974097435e-06
-0.4100044667721,-4.566537427309e-06
-0.3999982178211,-4.464791345526e-06
-0.3899971544743,-4.354607881396e-06
-0.3799976706505,-4.229839305481e-06
-0.3699963986874,-4.119930054003e-06
-0.3599926233292,-4.013550096715e-06
-0.3499888777733,-3.911343810614e-06
-0.3399815857410,-3.800545755439e-06
-0.3299807906151,-3.700343995661e-06
-0.3200005590916,-3.581951887099e-06
-0.3100046217442,-3.474497134448e-06
-0.2999998331070,-3.365477596162e-06
-0.2899950146675,-3.264493443567e-06
-0.2799906134605,-3.161622089465e-06
-0.2699841260910,-3.060560857193e-06
-0.2599789202213,-2.953951707241e-06
-0.2499813884497,-2.847727955668e-06
-0.2399796396494,-2.738059265539e-06
-0.2300072908401,-2.630649305502e-06
-0.2200016528368,-2.523898274376e-06
-0.2099997252226,-2.423484147585e-06
-0.1999982148409,-2.321695546925e-06
-0.1899925172329,-2.214741925854e-06
-0.1799839287996,-2.111521780535e-06
-0.1699770390987,-2.002334895224e-06
-0.1599742025137,-1.897550077956e-06
-0.1499698758125,-1.792755483621e-06
-0.1400047391653,-1.692481987448e-06
-0.1299989968538,-1.584782808095e-06
-0.1199911907315,-1.480069158788e-06
-0.1099853441119,-1.373421355311e-06
-0.0999807491899,-1.265529249395e-06
-0.0899787992239,-1.154748247245e-06
-0.0799788236618,-1.045827389135e-06
-0.0699640586972,-9.300725878347e-07
-0.0599517375231,-8.144855883074e-07
-0.0499774366617,-6.949430826353e-07
-0.0399816296995,-5.71975931507e-07
-0.0299811214209,-4.42195641881e-07
-0.0199799370021,-3.051486885397e-07
-0.0099745430052,-1.582094029118e-07
0.0000320997933,4.557725863386e-10
0.0099977822974,1.741812383216e-07
0.0199617128819,3.667780106298e-07
0.0299596283585,5.818769750476e-07
0.0399532616138,8.269630598079e-07
0.0499752536416,1.111614665206e-06
0.0599874220788,1.438674871679e-06
0.0699912458658,1.818415057642e-06
0.0799909457564,2.268647449455e-06
0.0899888351560,2.801859864121e-06
0.0999908819795,3.433203573877e-06
0.1099943667650,4.183262262814e-06
0.1199965402484,5.062816399004e-06
0.1299977600574,6.089416729083e-06
0.1399660706520,7.272344646481e-06
0.1499586105347,8.624600013718e-06
0.1599622070789,1.014406188915e-05
0.1699847728014,1.184813208965e-05
0.1799910515547,1.371118105453e-05
0.1899989694357,1.572793007654e-05
0.2000016719103,1.789267116692e-05
0.2100027948618,2.0194449462e-05
0.2200011610985,2.262567068101e-05
0.2300059050322,2.517194479879e-05
0.2400096952915,2.781196781143e-05
0.2499764114618,3.054623448406e-05
0.2599819898605,3.336074587423e-05
0.2699766159058,3.625515455496e-05
0.2799811661243,3.921585448552e-05
0.2899852693081,4.22519769927e-05
0.2999859154224,4.533531318884e-05
0.3099897503853,4.848807293456e-05
0.3199845850468,5.168318602955e-05
0.3299953043461,5.493465505424e-05
0.3399954438210,5.821929880767e-05
0.3500005304813,6.151793786557e-05
0.3600026667118,6.487656355603e-05
0.3699699342251,6.82433746988e-05
0.3799700438976,7.166897557909e-05
0.3899682760239,7.50991384848e-05
0.3999698460102,7.861811172916e-05
0.4099719524384,8.207868086174e-05
0.4199732244015,8.556729881093e-05
0.4299759864807,8.913685451262e-05
0.4399716258049,9.268221037928e-05
0.4499735832214,9.626236715121e-05
0.4599842727184,9.987149678636e-05
0.4699845016003,0.0001034712404362
0.4800215363503,0.0001070789803634
0.4899848103523,0.0001107025527745
0.4999870657921,0.0001143495101132
0.5099886059761,0.0001179927421617
0.5199939608574,0.0001217155149789
0.5299949049950,0.0001253961527254
0.5399918556213,0.0001291212684009
0.5499953031540,0.0001329017395619
0.5599952340126,0.0001366036449326
0.5700036883354,0.0001404202921549
0.5800064206123,0.0001441865751985
0.5900058150291,0.0001480298669776
0.6000176072121,0.0001517864584457
0.6099787950516,0.0001555333728902
0.6199879050255,0.0001594059867784
0.6299902796745,0.0001631800842006
0.6399902701378,0.0001669154444244
0.6499942541122,0.0001709201460471
0.6599937081337,0.0001747374190018
0.6699921488762,0.0001785668428056
0.6799960136414,0.0001825024664868
0.6899991035461,0.0001863809302449
0.7000079154968,0.00019024516223
0.7100037336349,0.0001942079834407
0.7199717164040,0.0001979971129913
0.7299767732620,0.0002019796229433
0.7399817109108,0.0002058335667243
0.7499911189079,0.0002097495016642
0.7599866390228,0.000213633509702
0.7699923515320,0.0002176388079533
0.7799904942513,0.0002218153967988
0.7899939417839,0.0002257443848066
0.7999982237816,0.0002295784215676
0.8099990487099,0.0002335757308174
0.8200023174286,0.0002374406176386
0.8300064206123,0.0002414044720354
0.8399718999863,0.000245408853516
0.8499714136124,0.0002493904030416
0.8599784374237,0.0002534502127673
0.8699858784676,0.0002573048113845
0.8799895048141,0.0002613863325678
0.8899862170219,0.0002653555420693
0.8999899625778,0.0002694102877285
0.9099903106689,0.0002734341251198
0.9200005531311,0.0002774405002128
0.9299995899200,0.0002815508632921
0.9400020241737,0.0002855473430827
0.9499958753586,0.0002895290672313
0.9599667787552,0.0002936335804407
0.9699734449387,0.000297695514746
0.9799752235413,0.0003018720308319
0.9899787306786,0.0003057269204874
0.9999813437462,0.0003099322202615
1.0099869966507,0.0003139576292597
1.0199843645096,0.0003180037892889
1.0299950838089,0.0003220617363695
1.0399972200394,0.0003263151447754
1.0499966144562,0.0003303996636532
1.0599948167801,0.0003346029843669
1.0699968338013,0.0003386012976989
1.0799667835236,0.0003426336916164
1.0899749994278,0.0003465662593953
1.0999771356583,0.0003506699868012
1.1099743843079,0.0003547555243131
1.1199722290039,0.0003588534891605
1.1299765110016,0.0003630519495346
1.1399868726730,0.0003673063765746
1.1499890089035,0.0003715990169439
1.1599942445755,0.0003758234088309
1.1699959039688,0.0003799122350756
1.1799955368042,0.0003841509169433
1.1899956464767,0.0003882441378664
1.1999714374542,0.0003924535994884
1.2099719047546,0.0003968391101807
1.2199714183807,0.0004010802949779
1.2299759387970,0.0004052029107697
1.2399724721909,0.0004093480238225
1.2499778270721,0.0004136796342209
1.2599816322327,0.0004180085670669
1.2699859142303,0.0004220653208904
1.2799921035767,0.0004263622395229
1.2899889945984,0.0004307470808271
1.2999979257584,0.0004350370436441
1.3099620342255,0.0004390279063955
1.3199689388275,0.0004432984569576
1.3299682140350,0.0004472300061025
1.3399734497070,0.0004511382139754
1.3499698638916,0.0004553848411888
1.3599696159363,0.0004595779173542
1.3699758052826,0.0004637011734303
1.3799775838852,0.0004680727724917
1.3899751901627,0.0004723524325527
1.3999867439270,0.0004766435595229
1.4099785089493,0.0004808364319615
1.4199901819229,0.0004852860874962
1.4299658536911,0.0004894511657767
1.4399598836899,0.0004940254730172
1.4499721527100,0.0004981639795005
1.4599609375000,0.0005022151162848
1.4699679613113,0.0005064302822575
1.4799700975418,0.0005111079663038
1.4899728298187,0.0005151907680556
1.4999778270721,0.0005194457480684
1.5099769830704,0.0005237475270405
1.5199737548828,0.0005282498896122
1.5299789905548,0.0005326704122126
1.5399824380875,0.0005366849945858
1.5499607324600,0.0005410658777691
1.5599595308304,0.0005453118355945
1.5699648857117,0.0005496058147401
1.5799636840820,0.0005539145786315
1.5899611711502,0.0005581384757534
1.5999776124954,0.0005626977072097
1.6099722385406,0.0005668981466442
1.6199746131897,0.0005712661659345
1.6299672126770,0.0005754877347499
1.6399718523026,0.0005799664068036
1.6499736309052,0.000583917601034
1.6599448919296,0.0005881952238269
1.6699548959732,0.0005924822180532
1.6799485683441,0.0005970312631689
1.6899533271790,0.0006011122022755
1.6999551057816,0.0006056158454157
1.7099689245224,0.0006097099976614
1.7199671268463,0.0006144059589133
1.7299648523331,0.0006190223502927
1.7399711608887,0.000623463303782
1.7499716281891,0.0006278879009187
1.7599695920944,0.0006319875246845
1.7699804306030,0.0006365597946569
1.7799416780472,0.0006410274654627
1.7899453639984,0.000645074120257
1.7999470233917,0.0006492034881376
1.8099452257156,0.000654001487419
1.8199560642242,0.000658200820908
1.8299598693848,0.0006626704125665
1.8399691581726,0.0006669716676697
1.8499600887299,0.000671306217555
1.8599659204483,0.0006760922842659
1.8699717521667,0.0006804149015807
1.8799748420715,0.0006847389740869
1.8899737596512,0.0006888388306834
1.8999378681183,0.000694083282724
1.9099457263947,0.0006978421006352
1.9199423789978,0.0007021989440545
1.9299443960190,0.0007063642842695
1.9399487972260,0.0007115486077964
1.9499505758286,0.000715944042895
1.9599578380585,0.0007189294556156
1.9699685573578,0.0007226389716379
1.9799568653107,0.0007266292814165
1.9899652004242,0.0007316632545553
1.9999688863754,0.0007360551971942
